time,DC_Motor.y,DC_Motor.MotorTorque.tau,pid.u
0.0,0.0,0.0,0.0
0.001,0.0,0.0,100.0
0.002,0.0,0.0,0.0
0.003,0.0,0.0,2.000000000003638
0.004,3.3952429658277235e-05,0.14600751106748333,4.000000000007276
0.005,0.0015583508343301974,1.3990173565698314,5.996502220707043
0.006,0.006005522815505161,3.1488741455777136,7.842853260979609
0.007,0.014346623102715415,5.330555079243643,9.537114276932698
0.008,0.027473571644983517,7.929449885749066,11.1224112130094
0.009000000000000001,0.046545845797994645,11.17881122906,12.603896070444534
0.01,0.07231162294267153,14.683020937497833,13.951215769997361
0.011,0.10557946784917825,18.615705894328947,15.203121906939487
0.012,0.1468044615101755,22.70128267041964,16.351000006683535
0.013000000000000001,0.19652847315104485,27.086432824684344,17.42867406102414
0.014,0.25530303622195616,31.717666205418492,18.425669658650804
0.015,0.3235267520814881,36.52593792333767,19.339184765711252
0.016,0.4013197160155346,41.35895010583174,20.183127804233663
0.017,0.4888378243000821,46.289452075002885,20.98479771066377
0.018000000000000002,0.5863846318705124,51.368986755454706,21.739952194277066
0.019,0.6941040089384064,56.48986910371546,22.43271415034178
0.02,0.8120509874649542,61.62672604456886,23.07841698921584
0.021,0.9403037361528829,66.80576683145081,23.685574888024348
0.022,1.0788838061141865,71.98019627078541,24.251433551104128
0.023,1.2277597521161194,77.13280718181335,24.78138353776376
0.024,1.386840884292206,82.22806603648621,25.280612900654887
0.025,1.5560639439619235,87.29971027988,25.755114069026604
0.026000000000000002,1.7353669843416843,92.33642160099055,26.20213086178046
0.027,1.9246538803708724,97.31800463995593,26.621516329949372
0.028,2.1237846447223356,102.22235253212577,27.01677699931315
0.029,2.332668511809856,107.08998817643108,27.392522181136883
0.03,2.5511082273431747,111.84172686295253,27.743906936035273
0.031,2.778950188878162,116.52430013956376,28.081980780309095
0.032,3.016101695205966,121.1230444779176,28.402651291762595
0.033,3.262215675711742,125.61051608816501,28.699920259596183
0.034,3.5171228545591395,129.97762394047004,29.000086586769612
0.035,3.780746111113793,134.28009345350713,29.285702758979824
0.036000000000000004,4.052702614962913,138.45450469222388,29.547610296371204
0.037,4.332867994912271,142.53817758437518,29.81736200308478
0.038,4.620995279517534,146.48614288966567,30.069320893317126
0.039,4.91690386385642,150.35840476646956,30.316328668324786
0.04,5.220384867016909,154.12010614647014,30.552134864668915
0.041,5.531230707378035,157.78020115203796,30.780042275689993
0.042,5.849196947386963,161.3159806249028,31.00039642039701
0.043000000000000003,6.174054778018824,164.73608280823748,31.21747379664521
0.044,6.505599360293614,168.06076786027896,31.430260146897126
0.045,6.843611154159742,171.27280588678548,31.636839248578326
0.046,7.187864696669699,174.37270687515064,31.839210484764408
0.047,7.538161168580173,177.378430778785,32.0385176989239
0.048,7.89428535765041,180.27396974975193,32.23257211977034
0.049,8.256017223542287,183.06017679150722,32.4235421294361
0.05,8.623138783013536,185.7384899986411,32.612458505127506
0.051000000000000004,8.995458884876713,188.32646412173636,32.79966169311956
0.052000000000000005,9.37277259538542,190.80981984014815,32.982937970638886
0.053,9.754871484555855,193.18978463652482,33.16418052265544
0.054,10.141551931626427,195.4693304934459,33.34426855928177
0.055,10.532621511186692,197.6568751618606,33.52324038942788
0.056,10.927887574959831,199.74710450956968,33.70046597155488
0.057,11.3271580338392,201.7420803105078,33.876461607453166
0.058,11.730243772188267,203.6437278557265,34.05166755951723
0.059000000000000004,12.136959609343418,205.45406438065064,34.22627752205881
0.06,12.547123907620806,207.17498636137492,34.40038093779913
0.061,12.960585446920064,208.8274599650117,34.574099452594965
0.062,13.377182003840216,210.3949256863196,34.74477902357103
0.063,13.796744241975874,211.87815388359306,34.9139439506489
0.064,14.219104903917799,213.27872473082655,35.08275422985389
0.065,14.644100231617779,214.59856426012297,35.251447765323974
0.066,15.071570317020747,215.83966764343086,35.42011320178608
0.067,15.501384711699856,217.02219003886017,35.588795768941054
0.068,15.933401552035079,218.1302524124494,35.75489396305602
0.069,16.36747270505283,219.1646107227953,35.91993084540263
0.07,16.803452144884286,220.12683148764424,36.08493666399772
0.07100000000000001,17.241197282536195,221.01879205086442,36.25010062023648
0.07200000000000001,17.68056942737926,221.84246610190104,36.41547147958954
0.073,18.12143349528437,222.59969116423636,36.5810429373978
0.074,18.563683128067215,223.3103059422798,36.746829757570595
0.075,19.0072011994382,223.95857479454224,36.91025070889191
0.076,19.451863883993934,224.54512727143248,37.07270861197867
0.077,19.897549124392757,225.07134810563232,37.23522196215981
0.078,20.344137925825034,225.53892563865188,37.397959674170124
0.079,20.791514771019006,225.94962921561853,37.56095440801164
0.08,21.239592208360467,226.32263598602606,37.724189200841465
0.081,21.688270850434947,226.64243521578456,37.885105829904205
0.082,22.13744507248607,226.90949876595715,38.04518401337009
0.083,22.58701079224116,227.12509330282273,38.20535444810503
0.084,23.036866735029427,227.29077205308732,38.36576730260094
0.085,23.486914849576007,227.40816834024102,38.52643983621783
0.08600000000000001,23.937060154542927,227.47880988948452,38.68734001975827
0.08700000000000001,24.38723494342229,227.5216110216038,38.84844385973338
0.088,24.837360049909535,227.52100306376676,39.00722640298591
0.089,25.287349430580917,227.47728516804892,39.16507212173747
0.09,25.73711815746414,227.3915045770259,39.32292957269965
0.091,26.18658367087625,227.26499853420353,39.480946407718875
0.092,26.635666211243674,227.09919363988604,39.63913954117834
0.093,27.084288573626335,226.89535136554136,39.79747590032184
0.094,27.53239974487174,226.6720344715812,39.95594084018012
0.095,27.979937944632564,226.41369912245744,40.112078445274165
0.096,28.42683387186514,226.12048120963232,40.26716223555741
0.097,28.873018949420736,225.79322619786677,40.42216502925021
0.098,29.318426561951632,225.43307168653848,40.577234385294105
0.099,29.76299240864847,225.0412016589147,40.732389518933815
0.1,30.20667793864995,224.6354876110522,40.88760871407885
0.101,30.64943246988338,224.2006535176624,41.04045023483923
0.10200000000000001,31.091198390894846,223.73670282625187,41.19229786854794
0.10300000000000001,31.531918629629125,223.24438482767204,41.34403715989356
0.10400000000000001,31.971537871603722,222.7247281081469,41.495806298817115
0.105,32.410002970903705,222.17884535567356,41.64761749143236
0.106,32.8472628217971,221.60772288059576,41.799436401575804
0.107,33.283290968853784,221.02885253909557,41.95123643312127
0.108,33.718049691002975,220.42708502495736,42.100656556247486
0.109,34.15149378727853,219.8023022414282,42.248961886729376
0.11,34.58357827923288,219.1550843826413,42.39706230952379
0.111,35.014259605946954,218.48629287258467,42.5450977001974
0.112,35.443496030418444,217.79686911859318,42.69308505196477
0.113,35.87127007378779,217.10355955614216,42.840996082203674
0.114,36.29755169253838,216.39159913184332,42.98648666083409
0.115,36.722304066876355,215.66076314003726,43.130933232610005
0.116,37.14549047390676,214.91156555445116,43.2751544695202
0.117,37.567075462159806,214.1447866622301,43.41928216970882
0.11800000000000001,37.987025239450624,213.36128566314346,43.56332757344353
0.11900000000000001,38.40530762791366,212.5618355020825,43.70725883300565
0.12,38.82191355167,211.76276799713713,43.85104439783845
0.121,39.23682238730203,210.9495443249571,43.9924348262075
0.122,39.65000628462985,210.1218620183923,44.13268068399793
0.123,40.061437252907105,209.28010122077066,44.272622696742474
0.124,40.47108830379989,208.4249094898139,44.412393951911326
0.125,40.87893385301062,207.55702228614598,44.55201077160564
0.126,41.284949629006015,206.67703799957232,44.69144561511985
0.127,41.68913316670915,205.80080000490565,44.83067661608948
0.128,42.09147156851677,204.9140899077918,44.96756716887376
0.129,42.49194432860451,204.0165426572382,45.10323612163302
0.13,42.89053061037834,203.10842832700513,45.23854312678759
0.131,43.287210354142346,202.19028225010362,45.37362150065019
0.132,43.68196463821098,201.26269037292082,45.50849186326013
0.133,44.07479603556321,200.34074935585414,45.64313568782836
0.134,44.46569552662942,199.41072442545146,45.77543424670239
0.135,44.85464730098574,198.47219785649028,45.9066124915762
0.136,45.2416351801944,197.52541354546696,46.03743589347778
0.137,45.62664369856475,196.5708655343944,46.168029067014686
0.138,46.00965847399334,195.6091279387627,46.29840672176397
0.139,46.39066617341135,194.64067434568722,46.42854352017639
0.14,46.769673740361924,193.6801326916774,46.55841469951338
0.14100000000000001,47.14667770601042,192.71413297632853,46.68601177059918
0.14200000000000002,47.5216675016633,191.74222416092513,46.812426449742816
0.14300000000000002,47.89463205245768,190.76456320981907,46.93844071231433
0.14400000000000002,48.26556081779781,189.7815547678936,47.064178904733126
0.145,48.63444416024934,188.79367981464932,47.18965993778238
0.146,49.001292429039246,187.81482296776937,47.314863316083574
0.147,49.36610450897421,186.83213893185734,47.43780002729636
0.148,49.728873013112086,185.8451364421172,47.55966058280774
0.149,50.089590040278324,184.85396190343593,47.68113518984137
0.15,50.44824818898206,183.85899313087705,47.80234000470227
0.151,50.804840896348956,182.86068005954087,47.92328844106214
0.152,51.15936244299731,181.85940669694008,48.043957634719845
0.153,51.51182591290311,180.86860443551137,48.16432181777054
0.154,51.862234124082825,179.87581176401403,48.282502564051356
0.155,52.21058336533031,178.88052665472605,48.39955912064033
0.156,52.55686931373976,177.88282725487068,48.51619672281595
0.157,52.90108800606331,176.88302082340192,48.63253077511763
0.158,53.24323618473187,175.88149296035493,48.748578546617864
0.159,53.58331127524176,174.87852068020183,48.86432065241752
0.16,53.92132827677846,173.88703929901465,48.97973797125087
0.161,54.257293107623816,172.89501888383373,49.09306929842478
0.162,54.59120495548441,171.9019511147153,49.2052460128707
0.163,54.92306232475876,170.9078604215269,49.316984668656914
0.164,55.25286396537082,169.91299558058876,49.42839917296442
0.165,55.580609194302355,168.91765264573596,49.539509838052254
0.166,55.90631466709581,167.93408318257886,49.65030313542593
0.167,56.22998703946391,166.9507799752879,49.75903603751249
0.168,56.551627053591986,165.96722284009272,49.86672922215621
0.169,56.87123479938605,164.98344308726027,49.974012462703286
0.17,57.188810615095235,163.99968160170715,50.08099136273631
0.171,57.50435539922306,163.01624847449517,50.18768071179693
0.17200000000000001,57.81787061386253,162.03337568755308,50.29406240956541
0.17300000000000001,58.12937394598943,161.0628674448454,50.40011630220579
0.17400000000000002,58.438874245423754,160.09363381132505,50.504207078163745
0.17500000000000002,58.74637427514789,159.12516056868253,50.60723196421077
0.176,59.05187609519153,158.15743499939128,50.709831360555654
0.177,59.35538192051589,157.19064983264084,50.81210934657156
0.178,59.65689443133418,156.22506408136317,50.91408370411591
0.179,59.956432311649486,155.27182901622973,51.01573973364111
0.18,60.25400458301994,154.3203703146903,51.11546049676235
0.181,60.54961495469837,153.37016364740447,51.214224485476734
0.182,60.843266470690196,152.42120812281402,51.31259104055107
0.183,61.13496234163589,151.47369333513092,51.41065673182311
0.184,61.42470622457174,150.527869720076,51.50843437676713
0.185,61.712502244698925,149.58393766473026,51.605907404452864
0.186,61.99836948465355,148.65263698827366,51.7030555800452
0.187,62.282318482443735,147.7237882634062,51.79836448774495
0.188,62.56435430942511,146.79688242581759,51.89269534117011
0.189,62.84448133754729,145.87188270297594,51.98661785491913
0.19,63.12270402971774,144.94893948956366,52.080227029721755
0.191,63.399027223198935,144.02826840407474,52.17353846779088
0.192,63.67345613364137,143.11000039448814,52.26653821180935
0.193,63.94600988074322,142.20443810112744,52.35921066168612
0.194,64.21670010360589,141.30182029627494,52.450145556825646
0.195,64.48553286301485,140.40165269109576,52.54009331008456
0.196,64.75251350014304,139.50387161945085,52.62963071996819
0.197,65.01764738697388,138.60859544679695,52.71885076665967
0.198,65.28094019369927,137.71598310982793,52.807771188163315
0.199,65.5424113147813,136.83576062625397,52.89638197465911
0.2,65.80207194604816,135.95863865761686,52.983288949453254
0.201,66.05992842013734,135.08412691659296,53.06931459825046
0.202,66.31598640141063,134.2121794617936,53.15496232534906
0.203,66.57025161115084,133.34291952879335,53.2403179350913
0.20400000000000001,66.82273007978974,132.476527065551,53.325394426956336
0.20500000000000002,67.07342816289452,131.61312183257994,53.410178529576115
0.20600000000000002,67.3223650025283,130.76204613086998,53.494654270416504
0.20700000000000002,67.56955255367338,129.91439403295394,53.57752079856482
0.20800000000000002,67.814997803897,129.06969429368962,53.65949594292806
0.209,68.0587070587881,128.2278774511782,53.741090328324844
0.21,68.30068662887868,127.38903902817054,53.82238795572903
0.211,68.54094308062153,126.55332935645266,53.90340399293336
0.212,68.77949559709494,125.72955098798124,53.98412761086638
0.213,69.0163555320546,124.90924599945312,54.06327367645008
0.214,69.25152993045907,124.09194472068943,54.14162491230445
0.215,69.48502520417455,123.27759582453416,54.21962477400302
0.216,69.71684779632024,122.46630031595467,54.29735091767316
0.217,69.94700440526195,121.6582084417564,54.37481434228903
0.218,70.17550200946316,120.85343249937304,54.45200274775743
0.219,70.40235933662314,120.06043000129009,54.5289003690159
0.22,70.62758823477354,119.27109195674205,54.60430890492762
0.221,70.85119614373816,118.48497110712327,54.67891334673868
0.222,71.07318986230409,117.70199594977136,54.75316461554894
0.223,71.29357617661354,116.9222440692578,54.82713870247562
0.224,71.51236208614021,116.14584548280519,54.90084866166262
0.225,71.7295548163737,115.3728647071928,54.97428416963885
0.226,71.94517248212038,114.6113976727252,55.04743281192941
0.227,72.1592272070784,113.85369613389098,55.11918281372937
0.228,72.37172663989595,113.09933306361846,55.19012817358043
0.229,72.58267778826082,112.34822269548401,55.26072455637723
0.23,72.79208761326082,111.6004237436273,55.3310460007865
0.231,72.99996324436275,110.85602832389283,55.40110711000898
0.232,73.20632256211123,110.122665250559,55.47090034162329
0.233,73.4111768979941,109.3929812892347,55.53932727248139
0.234,73.6145336981705,108.66655831434036,55.60703891343428
0.23500000000000001,73.81639981967015,107.94332978565636,55.67443140958858
0.23600000000000002,74.01678210374132,107.22336305580592,55.74157291637266
0.23700000000000002,74.21568757560718,106.50677069020156,55.80847416493316
0.23800000000000002,74.41312346279682,105.7936190733761,55.8751252183547
0.23900000000000002,74.609106984934,105.09122380300434,55.94151355515214
0.24,74.80364964474262,104.39255484912728,56.006617354288665
0.241,74.9967589921187,103.69721526176846,56.071002614825375
0.242,75.18844198856642,103.00512498817818,56.13507063610905
0.243,75.37870554862954,102.31633419390384,56.19888789983088
0.244,75.56755673875371,101.6309372366926,56.26246674713002
0.245,75.75501248651533,100.95581693080332,56.325799035877935
0.246,75.9410835046304,100.28431155245254,56.387875779118986
0.247,76.1257770884947,99.61602948933762,56.449314019335816
0.248,76.30909999164064,98.95090870201267,56.510461151050094
0.249,76.49105894862728,98.28900709593776,56.571378513616764
0.25,76.6716608514836,97.63042157458105,56.63207507961397
0.251,76.85091277250989,96.97522027913975,56.69254156704983
0.252,77.02883094872843,96.33000754447778,56.75276573152314
0.253,77.20542617444441,95.6884105573492,56.81180906466898
0.254,77.38070575848455,95.05005977493138,56.87020991428835
0.255,77.55467646986872,94.41488091205743,56.92832121458332
0.256,77.72734503119491,93.78291682924413,56.98620281663125
0.257,77.8987182962523,93.15425176317177,57.04386523782705
0.258,78.06880326409298,92.52891950213991,57.10130070361083
0.259,78.23761541360324,91.91323459602262,57.158499456477784
0.26,78.40516549720179,91.30111952542242,57.21459253271769
0.261,78.57146073865579,90.69222432701955,57.270045563148415
0.262,78.73650782894985,90.0864665782077,57.32521483846995
0.263,78.90031339196344,89.48387716832524,57.38015852700164
0.264,79.06288415426889,88.88451390121193,57.434888298171245
0.265,79.22423521564889,88.2943207517064,57.48939839898321
0.266,79.38437651714555,87.70753899638703,57.54283060307489
0.267,79.54331494321309,87.12382808254942,57.59569515657631
0.268,79.70105689094909,86.54312289968402,57.64830112242271
0.269,79.8576087188689,85.96546316787366,57.70070197455016
0.27,80.01297690332129,85.3909241244757,57.75290629803226
0.271,80.16716805533748,84.81954565788742,57.80490655335211
0.272,80.32019655741219,84.25702244314328,57.85669297981576
0.273,80.47207229888659,83.69785731813468,57.90746853659334
0.274,80.62280206600342,83.14172898994079,57.957675926223374
0.275,80.77239216324391,82.58856396731846,58.00762801931023
0.276,80.92084883639797,82.03839056589814,58.05737687195824
0.277,81.06817842839934,81.49127225360546,58.10693228441164
0.278,81.21439495248725,80.95256226082941,58.15628805510869
0.279,81.35950754342674,80.4170579122217,58.20465737514064
0.28,81.50352265838443,79.88444382738729,58.252522766297034
0.281,81.64644631258328,79.35466221045199,58.30015456643787
0.28200000000000003,81.7882844875657,78.82774890530553,58.34760075347299
0.28300000000000003,81.92904326894066,78.30377027943122,58.394868460417456
0.28400000000000003,82.06872886563688,77.78277090783666,58.44195061166124
0.28500000000000003,82.20732116730422,77.26973024729841,58.48883771213332
0.28600000000000003,82.34479342520702,76.76086806183815,58.53824388667499
0.28700000000000003,82.48129856968258,76.25273064357279,58.59093562091584
0.28800000000000003,82.61678840516417,75.74997103230105,58.6285055588196
0.289,82.75125161036061,75.25029717583779,58.67123118366908
0.29,82.88469128801735,74.75311180089895,58.71547956438826
0.291,83.01711349919171,74.25931781721796,58.75981945962826
0.292,83.14852553690375,73.76922967202326,58.803957204359676
0.293,83.27893506893845,73.28291376643,58.84776792671801
0.294,83.40834982712936,72.80036043114325,58.89121119696938
0.295,83.53677749785672,72.32153295746993,58.93427731023439
0.296,83.66422568552248,71.8463866435027,58.97696749444981
0.297,83.79070190277896,71.37487559863325,59.01928672390204
0.298,83.91621357025578,70.90695506898173,59.06124107500568
0.299,84.0407680194679,70.4425821458643,59.102836779137306
0.3,84.16437249662097,69.9817158983686,59.14407989758092
0.301,84.2870341603214,69.52431182650841,59.184976222095884
0.302,84.40875232603699,69.06456979647102,59.22553189305222
0.303,84.52952998579165,68.60782426640972,59.26655214786888
0.304,84.64937379603379,68.15472679978357,59.30767916498189
0.305,84.76829142886332,67.70550124265293,59.34854520958879
0.306,84.88629087801993,67.26021047423681,59.38904422378255
0.307,85.00338016195263,66.81882116025488,59.42913842604503
0.308,85.11956719949985,66.38126708446552,59.46881949339968
0.309,85.2348597659822,65.94747193218063,59.50809167531611
0.31,85.34926548183667,65.51735849286015,59.54696388703792
0.311,85.46279181439105,65.09085231560299,59.58544649262467
0.312,85.57544608460573,64.66788295887841,59.6235499886825
0.313,85.68723547536783,64.24838426138314,59.661284490317485
0.314,85.79816703995334,63.832294226352225,59.698659553782136
0.315,85.90824771012129,63.41955476533164,59.73568413688531
0.316,86.01748430365676,63.010111402353914,59.772366613936356
0.317,86.12588353132249,62.60391297869387,59.808714810504625
0.318,86.23345200323459,62.20091137326466,59.84473604385562
0.319,86.34019623469824,61.801061243428734,59.88043716341758
